PE UV       SUBTECH     SPECTRUM    ASCII       PEDS        4.00        
   -1
Sample4394.Sample.Raw.asc
22/05/24
03:19:02.00
22/05/24
03:19:02.00
Analyst

250.000000
1
Lambda 1050
1050L1210281
PerkinElmer UV WinLab 6.0.4.0738 / 1.61.00 Lambda 900

0
0
3350/servo 860.8/5
0
0
UV/VIS
1
1
1
DoubleDePol,CommonBeamDepol,RBeamAtt,SBeamAtt,150mm sphere / downward view
0
0
0
0
Program
Program
3350/servo 860.8/5
3350/0.24 860.8/0.16
3350/0.24 860.8/0.16
0
5
 
 
 
0
 
860.8
319.2
860.8
Front
100
on
S:100 R:100
0
0
0
0
 
0
 
 
 
0
 
 
0
0
0
0
0
 
 
 
 
0
0


0
0
#HDR
-1
-1
#GR
nm
%R
1.0
0.0
2000.000000
-10.000000
176
8
99.708459
95.666275
#DATA
2000.000000	97.355012
1990.000000	97.562782
1980.000000	97.026974
1970.000000	96.918564
1960.000000	98.457221
1950.000000	97.710425
1940.000000	97.361770
1930.000000	97.829855
1920.000000	97.410290
1910.000000	97.069155
1900.000000	97.362194
1890.000000	97.650741
1880.000000	98.052122
1870.000000	98.136273
1860.000000	97.848283
1850.000000	98.386911
1840.000000	97.960339
1830.000000	97.658722
1820.000000	97.892001
1810.000000	98.635324
1800.000000	97.921958
1790.000000	98.485374
1780.000000	97.395803
1770.000000	98.620281
1760.000000	98.184974
1750.000000	98.680251
1740.000000	98.585178
1730.000000	98.533938
1720.000000	98.499979
1710.000000	98.209531
1700.000000	98.398695
1690.000000	98.084237
1680.000000	98.376244
1670.000000	97.700564
1660.000000	98.026358
1650.000000	98.491678
1640.000000	98.910577
1630.000000	98.789232
1620.000000	98.343443
1610.000000	98.649815
1600.000000	98.109713
1590.000000	98.497953
1580.000000	98.673265
1570.000000	98.939406
1560.000000	98.802900
1550.000000	98.295885
1540.000000	98.580475
1530.000000	98.943561
1520.000000	98.765761
1510.000000	98.568771
1500.000000	98.898577
1490.000000	98.619767
1480.000000	99.190005
1470.000000	98.651046
1460.000000	98.632750
1450.000000	97.916898
1440.000000	98.439943
1430.000000	98.815400
1420.000000	97.772503
1410.000000	98.119525
1400.000000	98.554998
1390.000000	98.402204
1380.000000	98.122650
1370.000000	99.286398
1360.000000	98.608343
1350.000000	98.763440
1340.000000	98.363026
1330.000000	98.756085
1320.000000	98.346856
1310.000000	98.815359
1300.000000	98.916900
1290.000000	99.098677
1280.000000	99.708459
1270.000000	98.481954
1260.000000	99.009154
1250.000000	98.434722
1240.000000	98.748190
1230.000000	98.679159
1220.000000	98.417944
1210.000000	98.895021
1200.000000	99.678966
1190.000000	99.170901
1180.000000	98.979505
1170.000000	99.105429
1160.000000	98.837729
1150.000000	99.054285
1140.000000	98.967852
1130.000000	99.297520
1120.000000	98.870624
1110.000000	98.476625
1100.000000	99.208619
1090.000000	98.929238
1080.000000	99.307782
1070.000000	98.815360
1060.000000	98.334868
1050.000000	98.292286
1040.000000	99.197807
1030.000000	99.099501
1020.000000	98.586142
1010.000000	99.705602
1000.000000	99.137754
990.000000	98.817272
980.000000	99.116178
970.000000	99.061139
960.000000	99.581638
950.000000	98.966925
940.000000	98.463116
930.000000	98.539788
920.000000	98.833847
910.000000	99.210784
900.000000	98.431744
890.000000	98.982402
880.000000	98.763653
870.000000	98.902535
860.000000	98.830001
850.000000	98.907456
840.000000	99.103733
830.000000	98.655030
820.000000	99.012772
810.000000	98.940983
800.000000	98.929090
790.000000	98.918119
780.000000	98.850458
770.000000	98.820685
760.000000	98.949734
750.000000	98.890846
740.000000	99.002474
730.000000	98.807311
720.000000	98.822153
710.000000	98.987512
700.000000	98.981728
690.000000	99.034974
680.000000	98.897017
670.000000	98.996216
660.000000	98.951593
650.000000	99.032596
640.000000	99.005988
630.000000	98.934394
620.000000	98.994304
610.000000	98.993731
600.000000	99.002439
590.000000	99.087407
580.000000	99.027719
570.000000	98.939813
560.000000	98.999048
550.000000	99.011580
540.000000	99.039230
530.000000	98.989267
520.000000	99.039817
510.000000	99.049291
500.000000	98.945933
490.000000	98.947092
480.000000	98.940192
470.000000	98.979452
460.000000	98.902517
450.000000	98.956897
440.000000	98.810622
430.000000	98.952267
420.000000	98.933842
410.000000	98.911687
400.000000	98.911985
390.000000	98.834450
380.000000	98.850167
370.000000	98.984664
360.000000	98.864587
350.000000	98.678779
340.000000	98.411355
330.000000	98.416454
320.000000	98.459039
310.000000	97.852156
300.000000	97.752177
290.000000	97.440499
280.000000	97.069523
270.000000	96.646884
260.000000	96.054633
250.000000	95.666275
