PE UV       SUBTECH     SPECTRUM    ASCII       PEDS        4.00        
   -1
Sample4398.Sample.Raw.asc
22/05/24
03:41:03.00
22/05/24
03:41:03.00
Analyst

250.000000
1
Lambda 1050
1050L1210281
PerkinElmer UV WinLab 6.0.4.0738 / 1.61.00 Lambda 900

0
0
3350/servo 860.8/5
0
0
UV/VIS
1
1
1
DoubleDePol,CommonBeamDepol,RBeamAtt,SBeamAtt,150mm sphere / downward view
0
0
0
0
Program
Program
3350/servo 860.8/5
3350/0.24 860.8/0.16
3350/0.24 860.8/0.16
0
5
 
 
 
0
 
860.8
319.2
860.8
Front
100
on
S:100 R:100
0
0
0
0
 
0
 
 
 
0
 
 
0
0
0
0
0
 
 
 
 
0
0


0
0
#HDR
-1
-1
#GR
nm
%R
1.0
0.0
2000.000000
-10.000000
176
8
99.725425
95.588710
#DATA
2000.000000	97.550334
1990.000000	97.083065
1980.000000	96.938782
1970.000000	97.298294
1960.000000	97.835834
1950.000000	97.420182
1940.000000	97.936959
1930.000000	97.741643
1920.000000	97.683924
1910.000000	97.667525
1900.000000	97.815364
1890.000000	97.882671
1880.000000	97.351180
1870.000000	98.485569
1860.000000	97.903560
1850.000000	97.993399
1840.000000	97.873483
1830.000000	98.101153
1820.000000	98.498485
1810.000000	98.098037
1800.000000	98.323497
1790.000000	97.639929
1780.000000	97.845314
1770.000000	98.866352
1760.000000	98.394029
1750.000000	98.570990
1740.000000	97.538314
1730.000000	98.450093
1720.000000	98.903205
1710.000000	98.957740
1700.000000	98.544500
1690.000000	98.191677
1680.000000	98.287548
1670.000000	97.953971
1660.000000	98.535667
1650.000000	98.337275
1640.000000	99.062884
1630.000000	98.644789
1620.000000	98.572578
1610.000000	98.274505
1600.000000	98.510482
1590.000000	98.511408
1580.000000	99.447241
1570.000000	98.319135
1560.000000	98.473913
1550.000000	98.018524
1540.000000	99.130802
1530.000000	99.064891
1520.000000	98.831099
1510.000000	98.595489
1500.000000	98.653447
1490.000000	98.841621
1480.000000	98.445015
1470.000000	97.941172
1460.000000	99.023235
1450.000000	98.800335
1440.000000	99.043768
1430.000000	98.471266
1420.000000	99.416417
1410.000000	99.119339
1400.000000	98.684022
1390.000000	98.457087
1380.000000	97.789034
1370.000000	98.631538
1360.000000	98.522136
1350.000000	98.251068
1340.000000	98.421118
1330.000000	98.854159
1320.000000	98.290449
1310.000000	98.521275
1300.000000	98.998807
1290.000000	99.139617
1280.000000	99.234523
1270.000000	98.560612
1260.000000	98.393432
1250.000000	99.431459
1240.000000	99.511323
1230.000000	99.725425
1220.000000	98.573934
1210.000000	98.888387
1200.000000	98.367655
1190.000000	99.449978
1180.000000	99.131099
1170.000000	98.449381
1160.000000	99.709587
1150.000000	98.752412
1140.000000	98.510546
1130.000000	98.408048
1120.000000	99.209389
1110.000000	99.502041
1100.000000	98.482250
1090.000000	99.118420
1080.000000	98.856934
1070.000000	99.232182
1060.000000	99.019065
1050.000000	99.586811
1040.000000	98.390956
1030.000000	99.145340
1020.000000	98.923369
1010.000000	99.004698
1000.000000	98.081267
990.000000	98.655472
980.000000	99.322104
970.000000	98.864165
960.000000	98.614099
950.000000	99.124395
940.000000	99.214009
930.000000	98.744369
920.000000	98.732629
910.000000	98.809749
900.000000	98.513577
890.000000	98.510676
880.000000	99.164909
870.000000	99.343082
860.000000	99.653674
850.000000	98.543730
840.000000	99.015058
830.000000	98.801609
820.000000	98.986496
810.000000	99.003394
800.000000	99.204231
790.000000	98.833922
780.000000	98.856245
770.000000	98.783339
760.000000	98.900428
750.000000	98.807358
740.000000	98.948275
730.000000	98.934149
720.000000	98.866365
710.000000	99.050240
700.000000	99.088681
690.000000	98.964093
680.000000	98.963311
670.000000	98.942576
660.000000	99.035727
650.000000	98.959574
640.000000	98.959159
630.000000	98.959670
620.000000	99.052457
610.000000	99.010434
600.000000	98.985108
590.000000	98.974775
580.000000	98.960572
570.000000	98.995549
560.000000	99.026694
550.000000	99.103307
540.000000	99.062014
530.000000	98.917019
520.000000	98.972345
510.000000	98.895041
500.000000	98.925631
490.000000	98.970331
480.000000	98.954705
470.000000	98.851882
460.000000	98.912220
450.000000	98.925601
440.000000	98.886258
430.000000	98.871178
420.000000	98.911119
410.000000	98.898576
400.000000	98.964531
390.000000	98.938280
380.000000	98.819096
370.000000	98.882293
360.000000	98.862078
350.000000	98.816007
340.000000	98.604122
330.000000	98.576960
320.000000	97.902639
310.000000	98.015870
300.000000	97.540022
290.000000	97.583685
280.000000	97.091217
270.000000	96.692919
260.000000	96.349378
250.000000	95.588710
