PE UV       SUBTECH     SPECTRUM    ASCII       PEDS        4.00        
   -1
Sample4396.Sample.Raw.asc
22/05/24
03:25:23.00
22/05/24
03:25:23.00
Analyst

250.000000
1
Lambda 1050
1050L1210281
PerkinElmer UV WinLab 6.0.4.0738 / 1.61.00 Lambda 900

0
0
3350/servo 860.8/5
0
0
UV/VIS
1
1
1
DoubleDePol,CommonBeamDepol,RBeamAtt,SBeamAtt,150mm sphere / downward view
0
0
0
0
Program
Program
3350/servo 860.8/5
3350/0.24 860.8/0.16
3350/0.24 860.8/0.16
0
5
 
 
 
0
 
860.8
319.2
860.8
Front
100
on
S:100 R:100
0
0
0
0
 
0
 
 
 
0
 
 
0
0
0
0
0
 
 
 
 
0
0


0
0
#HDR
-1
-1
#GR
nm
%R
1.0
0.0
2000.000000
-10.000000
176
8
118.848707
97.532188
#DATA
2000.000000	99.192663
1990.000000	99.925994
1980.000000	99.979421
1970.000000	99.597488
1960.000000	101.738018
1950.000000	101.190847
1940.000000	101.609731
1930.000000	100.765858
1920.000000	100.789427
1910.000000	100.028550
1900.000000	99.667799
1890.000000	98.472124
1880.000000	98.677469
1870.000000	97.532188
1860.000000	98.453587
1850.000000	98.163951
1840.000000	98.886343
1830.000000	98.327265
1820.000000	98.485142
1810.000000	99.121483
1800.000000	98.228215
1790.000000	98.572086
1780.000000	98.056686
1770.000000	99.370595
1760.000000	98.794652
1750.000000	98.652188
1740.000000	98.926358
1730.000000	98.923654
1720.000000	98.915642
1710.000000	98.439878
1700.000000	99.131925
1690.000000	98.355309
1680.000000	98.886207
1670.000000	97.846855
1660.000000	98.836697
1650.000000	99.168432
1640.000000	98.702410
1630.000000	98.617852
1620.000000	98.414001
1610.000000	98.857949
1600.000000	98.854155
1590.000000	98.787986
1580.000000	99.016975
1570.000000	99.829943
1560.000000	99.433254
1550.000000	98.887431
1540.000000	99.395071
1530.000000	99.350944
1520.000000	98.764097
1510.000000	99.045019
1500.000000	99.050986
1490.000000	99.436913
1480.000000	99.835738
1470.000000	98.984827
1460.000000	99.193101
1450.000000	99.086099
1440.000000	99.088964
1430.000000	99.120406
1420.000000	98.631396
1410.000000	98.571235
1400.000000	98.965988
1390.000000	98.884460
1380.000000	98.338002
1370.000000	98.803421
1360.000000	99.080540
1350.000000	98.907256
1340.000000	99.212549
1330.000000	98.669120
1320.000000	98.296705
1310.000000	99.042224
1300.000000	98.809118
1290.000000	98.877795
1280.000000	99.451572
1270.000000	98.974783
1260.000000	99.480077
1250.000000	98.934347
1240.000000	98.990915
1230.000000	99.109410
1220.000000	98.484348
1210.000000	98.280425
1200.000000	99.878356
1190.000000	98.758588
1180.000000	99.396358
1170.000000	98.952426
1160.000000	99.080270
1150.000000	99.048762
1140.000000	99.205521
1130.000000	99.342272
1120.000000	98.236518
1110.000000	98.816318
1100.000000	98.806501
1090.000000	99.167934
1080.000000	99.186771
1070.000000	98.576319
1060.000000	97.984496
1050.000000	98.529072
1040.000000	99.162191
1030.000000	98.562510
1020.000000	98.496027
1010.000000	98.829011
1000.000000	99.013931
990.000000	98.203587
980.000000	99.571336
970.000000	98.757966
960.000000	99.137069
950.000000	99.242781
940.000000	98.648168
930.000000	99.202157
920.000000	98.935773
910.000000	99.097935
900.000000	98.610997
890.000000	98.899594
880.000000	98.145025
870.000000	98.653460
860.000000	97.880141
850.000000	99.014851
840.000000	99.104623
830.000000	98.700206
820.000000	98.809549
810.000000	99.049839
800.000000	99.055290
790.000000	98.895725
780.000000	98.954749
770.000000	98.801859
760.000000	98.774215
750.000000	98.875589
740.000000	99.007064
730.000000	98.898649
720.000000	98.864719
710.000000	98.995654
700.000000	98.986575
690.000000	98.977943
680.000000	99.007358
670.000000	98.945698
660.000000	99.005717
650.000000	99.000402
640.000000	99.075685
630.000000	99.054483
620.000000	98.970539
610.000000	98.983746
600.000000	99.064532
590.000000	99.113556
580.000000	99.096537
570.000000	98.984549
560.000000	99.139870
550.000000	99.115135
540.000000	99.143883
530.000000	99.076476
520.000000	99.188133
510.000000	99.196347
500.000000	99.192434
490.000000	99.181070
480.000000	99.289139
470.000000	99.333707
460.000000	99.342944
450.000000	99.342235
440.000000	99.358596
430.000000	99.430688
420.000000	99.695476
410.000000	99.756372
400.000000	99.908249
390.000000	99.900750
380.000000	99.591244
370.000000	98.862846
360.000000	98.467581
350.000000	98.555943
340.000000	98.754174
330.000000	99.649233
320.000000	100.851958
310.000000	101.677254
300.000000	102.879533
290.000000	105.876718
280.000000	109.524025
270.000000	112.061891
260.000000	113.894885
250.000000	118.848707
