PE UV       SUBTECH     SPECTRUM    ASCII       PEDS        4.00        
   -1
Sample1084 Center.Sample.Raw.asc
22/06/09
00:05:14.00
22/06/09
00:05:14.00
Analyst
Silizium Wafer Mikhail Itin Center
250.000000
1
Lambda 1050
1050L1210281
PerkinElmer UV WinLab 6.0.4.0738 / 1.61.00 Lambda 900

0
0
3350/20 889.8/5
0
0
UV/VIS
1
1
1
DoubleDePol,CommonBeamDepol,RBeamAtt,SBeamAtt,universal reflectance
0
0
0
0
Program
Program
3350/20 889.8/5
3350/0.52 889.8/0.52
3350/0.52 889.8/0.52
0
3350/8 3000/6 2585/4 2480/2 1810/1
 
 
 
0
 
889.8
319.2
889.8
Front
39
off
3350/S:100 3350/R:100
0
0
0
0
 
0
 
 
 
0
 
 
0
0
8.0
5.00
5.00
False
False
358L1302134
 
0
0


0
0
#HDR
-1
-1
#GR
nm
%R
1.0
0.0
1100.000000
-5.000000
171
8
70.747777
31.200191
#DATA
1100.000000	31.200191
1095.000000	31.222621
1090.000000	31.220867
1085.000000	31.216578
1080.000000	31.241061
1075.000000	31.239526
1070.000000	31.289369
1065.000000	31.282412
1060.000000	31.286756
1055.000000	31.296343
1050.000000	31.291414
1045.000000	31.273829
1040.000000	31.308323
1035.000000	31.327027
1030.000000	31.315928
1025.000000	31.342121
1020.000000	31.347865
1015.000000	31.313970
1010.000000	31.350057
1005.000000	31.331339
1000.000000	31.351492
995.000000	31.395028
990.000000	31.427402
985.000000	31.367796
980.000000	31.398974
975.000000	31.387469
970.000000	31.411658
965.000000	31.406237
960.000000	31.469680
955.000000	31.438385
950.000000	31.454870
945.000000	31.449376
940.000000	31.484216
935.000000	31.465667
930.000000	31.412138
925.000000	31.318249
920.000000	31.394388
915.000000	31.422120
910.000000	31.562695
905.000000	31.360909
900.000000	31.320543
895.000000	31.285467
890.000000	31.519503
885.000000	32.637539
880.000000	32.679960
875.000000	32.705802
870.000000	32.731340
865.000000	32.750956
860.000000	32.756752
855.000000	32.807280
850.000000	32.816875
845.000000	32.854737
840.000000	32.892452
835.000000	32.916789
830.000000	32.954292
825.000000	32.960440
820.000000	33.013575
815.000000	33.028112
810.000000	33.080049
805.000000	33.127535
800.000000	33.147334
795.000000	33.185356
790.000000	33.200917
785.000000	33.255609
780.000000	33.303289
775.000000	33.329610
770.000000	33.365527
765.000000	33.404520
760.000000	33.443367
755.000000	33.487928
750.000000	33.523465
745.000000	33.564411
740.000000	33.626040
735.000000	33.669591
730.000000	33.723180
725.000000	33.761245
720.000000	33.800839
715.000000	33.887815
710.000000	33.920258
705.000000	33.962458
700.000000	34.021060
695.000000	34.078474
690.000000	34.142244
685.000000	34.214052
680.000000	34.260333
675.000000	34.320687
670.000000	34.392693
665.000000	34.453425
660.000000	34.530165
655.000000	34.607312
650.000000	34.676630
645.000000	34.748446
640.000000	34.819983
635.000000	34.922569
630.000000	35.002493
625.000000	35.091078
620.000000	35.189405
615.000000	35.297872
610.000000	35.391013
605.000000	35.504764
600.000000	35.596419
595.000000	35.705051
590.000000	35.818618
585.000000	35.939121
580.000000	36.062064
575.000000	36.183689
570.000000	36.331083
565.000000	36.468938
560.000000	36.605360
555.000000	36.792108
550.000000	36.951259
545.000000	37.101336
540.000000	37.276892
535.000000	37.447152
530.000000	37.655029
525.000000	37.849869
520.000000	38.043694
515.000000	38.246856
510.000000	38.405728
505.000000	38.546011
500.000000	38.726718
495.000000	38.954723
490.000000	39.229661
485.000000	39.537294
480.000000	39.926210
475.000000	40.236160
470.000000	40.531952
465.000000	40.837818
460.000000	41.104341
455.000000	41.419447
450.000000	41.799182
445.000000	42.244440
440.000000	42.697921
435.000000	43.224989
430.000000	43.781218
425.000000	44.368741
420.000000	45.046008
415.000000	45.745101
410.000000	46.555992
405.000000	47.473425
400.000000	48.492900
395.000000	49.620041
390.000000	51.011358
385.000000	52.520442
380.000000	54.376225
375.000000	56.223698
370.000000	57.612451
365.000000	57.906349
360.000000	57.216338
355.000000	56.488465
350.000000	55.792938
345.000000	55.306060
340.000000	55.091297
335.000000	55.103504
330.000000	55.189651
325.000000	55.601093
320.000000	56.112507
315.000000	56.584177
310.000000	57.510573
305.000000	58.809526
300.000000	60.727786
295.000000	63.416335
290.000000	66.423708
285.000000	68.804688
280.000000	70.030500
275.000000	70.747777
270.000000	70.413641
265.000000	69.155688
260.000000	67.282511
255.000000	65.335754
250.000000	63.353067
