PE UV       SUBTECH     SPECTRUM    ASCII       PEDS        4.00        
   -1
Sample1077.Sample.Raw.asc
22/06/08
03:25:23.00
22/06/08
03:25:23.00
Analyst

250.000000
1
Lambda 1050
1050L1210281
PerkinElmer UV WinLab 6.0.4.0738 / 1.61.00 Lambda 900

0
0
3350/20 889.8/5
0
0
UV/VIS
1
1
1
DoubleDePol,CommonBeamDepol,RBeamAtt,SBeamAtt,universal reflectance
0
0
0
0
Program
Program
3350/20 889.8/5
3350/0.52 889.8/0.52
3350/0.52 889.8/0.52
0
3350/8 3000/5 2585/4 2480/2 1810/1
 
 
 
0
 
889.8
319.2
889.8
Front
39
on
3350/S:100 3350/R:100
0
0
0
0
 
0
 
 
 
0
 
 
0
0
8.0
5.00
5.00
False
False
358L1302134
 
0
0


0
0
#HDR
-1
-1
#GR
nm
%R
1.0
0.0
1100.000000
-10.000000
86
8
72.827483
31.314816
#DATA
1100.000000	31.314816
1090.000000	31.335297
1080.000000	31.345436
1070.000000	31.329147
1060.000000	31.406026
1050.000000	31.392291
1040.000000	31.476540
1030.000000	31.476808
1020.000000	31.498499
1010.000000	31.501071
1000.000000	31.526010
990.000000	31.534202
980.000000	31.581659
970.000000	31.588851
960.000000	31.568875
950.000000	31.695553
940.000000	31.597949
930.000000	31.638935
920.000000	31.616317
910.000000	31.721265
900.000000	31.430086
890.000000	31.522540
880.000000	32.128824
870.000000	32.188158
860.000000	32.243713
850.000000	32.306466
840.000000	32.371272
830.000000	32.439606
820.000000	32.522503
810.000000	32.579188
800.000000	32.673502
790.000000	32.746444
780.000000	32.857676
770.000000	32.929596
760.000000	33.021254
750.000000	33.107680
740.000000	33.198389
730.000000	33.299002
720.000000	33.416551
710.000000	33.534445
700.000000	33.661507
690.000000	33.783808
680.000000	33.935908
670.000000	34.068000
660.000000	34.223425
650.000000	34.367307
640.000000	34.550138
630.000000	34.691270
620.000000	34.900241
610.000000	35.118644
600.000000	35.328359
590.000000	35.557699
580.000000	35.798568
570.000000	36.058329
560.000000	36.330467
550.000000	36.673322
540.000000	37.008274
530.000000	37.364506
520.000000	37.762419
510.000000	38.162715
500.000000	38.640970
490.000000	39.180026
480.000000	39.863626
470.000000	40.420116
460.000000	41.055276
450.000000	41.909379
440.000000	42.877843
430.000000	43.948061
420.000000	45.258535
410.000000	46.782240
400.000000	48.753486
390.000000	51.330492
380.000000	54.739520
370.000000	58.081924
360.000000	58.005091
350.000000	56.588070
340.000000	56.047858
330.000000	56.391547
320.000000	57.236403
310.000000	59.246562
300.000000	62.343470
290.000000	68.193971
280.000000	72.039690
270.000000	72.827483
260.000000	70.077452
250.000000	66.566108
